# Pulseq sequence file
# Created by PyPulseq

[VERSION]
major 1
minor 3
revision 1

[DEFINITIONS]
Name spiral_example 

# Format of blocks:
#  #  D RF  GX  GY  GZ ADC EXT
[BLOCKS]
 1  0  1   0   0   1  0  0
 2  0  0   0   0   2  0  0
 3  0  0   3   4   0  1  0
 4  0  1   0   0   1  0  0
 5  0  0   0   0   2  0  0
 6  0  0   5   6   0  1  0
 7  0  1   0   0   1  0  0
 8  0  0   0   0   2  0  0
 9  0  0   7   8   0  1  0
10  0  1   0   0   1  0  0
11  0  0   0   0   2  0  0
12  0  0   9  10   0  1  0
13  0  1   0   0   1  0  0
14  0  0   0   0   2  0  0
15  0  0  11  12   0  1  0
16  0  1   0   0   1  0  0
17  0  0   0   0   2  0  0
18  0  0  13  14   0  1  0
19  0  1   0   0   1  0  0
20  0  0   0   0   2  0  0
21  0  0  15  16   0  1  0
22  0  1   0   0   1  0  0
23  0  0   0   0   2  0  0
24  0  0  17  18   0  1  0
25  0  1   0   0   1  0  0
26  0  0   0   0   2  0  0
27  0  0  19  20   0  1  0

# Format of RF events:
# id amplitude mag_id phase_id delay freq phase
# ..        Hz   ....     ....    us   Hz   rad
[RF]
1      69.2729 1 2 100 0 0

# Format of arbitrary gradients:
# id amplitude shape_id delay
# ..      Hz/m     ....    us
[GRADIENTS]
3      41.9965 3 0
4      41.9975 4 0
5       41.997 5 0
6      41.9965 6 0
7      41.9973 7 0
8      41.9972 8 0
9      41.9964 9 0
10      41.9966 10 0
11      41.9957 11 0
12      41.9942 12 0
13      41.9971 13 0
14      41.9946 14 0
15      41.9952 15 0
16      41.9951 16 0
17      41.9973 17 0
18      41.9928 18 0
19      41.9976 19 0
20      41.9972 20 0

# Format of trapezoid gradients:
# id amplitude rise flat fall delay
# ..      Hz/m   us   us   us    us
[TRAP]
 1       833333 100 3000 100   0
 2 -2.93561e+06 350   90 350   0

# Format of ADC events:
# id num dwell delay freq phase
# ..  ..    ns    us   Hz   rad
[ADC]
1 6055 2000 0 0 0

# Sequence Shapes
[SHAPES]

shape_id 1
num_samples 3000
1e-07
5e-07
7e-07
9e-07
1.3e-06
1.5e-06
1.9e-06
2.1e-06
2.4e-06
2.6e-06
3e-06
3.2e-06
3.5e-06
3.8e-06
4.1e-06
4.4e-06
4.6e-06
5e-06
5.2e-06
5.5e-06
5.8e-06
6e-06
6.4e-06
6.6e-06
6.9e-06
7.1e-06
7.5e-06
7.7e-06
8e-06
8.3e-06
8.6e-06
8.8e-06
9.1e-06
9.4e-06
9.6e-06
9.9e-06
1.02e-05
1.05e-05
1.07e-05
1.1e-05
1.12e-05
1.15e-05
1.18e-05
1.2e-05
1.23e-05
1.26e-05
1.28e-05
1.3e-05
1.33e-05
1.36e-05
1.38e-05
1.4e-05
1.43e-05
1.46e-05
1.47e-05
1.5e-05
1.53e-05
1.55e-05
1.57e-05
1.59e-05
1.62e-05
1.64e-05
1.66e-05
1.68e-05
1.71e-05
1.72e-05
1.75e-05
1.77e-05
1.79e-05
1.81e-05
1.83e-05
1.85e-05
1.87e-05
1.89e-05
1.9e-05
1.93e-05
1.94e-05
1.97e-05
1.98e-05
1.99e-05
2.02e-05
2.03e-05
2.05e-05
2.06e-05
2.08e-05
2.09e-05
2.11e-05
2.13e-05
2.13e-05
0
2.16e-05
2.16e-05
0
2.18e-05
2.19e-05
2.2e-05
2.22e-05
2.23e-05
2.24e-05
2.25e-05
2.25e-05
0
2.27e-05
2.28e-05
2.29e-05
2.3e-05
2.3e-05
0
2.32e-05
2.32e-05
1
2.34e-05
2.33e-05
2.35e-05
2.35e-05
1
2.36e-05
2.36e-05
0
2.37e-05
2.37e-05
3
2.38e-05
2.37e-05
2.38e-05
2.37e-05
2.37e-05
2
2.36e-05
2.37e-05
2.35e-05
2.36e-05
2.34e-05
2.35e-05
2.33e-05
2.33e-05
0
2.32e-05
2.32e-05
0
2.31e-05
2.29e-05
2.29e-05
0
2.28e-05
2.26e-05
2.26e-05
0
2.24e-05
2.24e-05
0
2.22e-05
2.2e-05
2.19e-05
2.18e-05
2.16e-05
2.14e-05
2.13e-05
2.11e-05
2.1e-05
2.07e-05
2.06e-05
2.03e-05
2.02e-05
1.99e-05
1.98e-05
1.95e-05
1.93e-05
1.9e-05
1.88e-05
1.86e-05
1.83e-05
1.8e-05
1.78e-05
1.75e-05
1.73e-05
1.69e-05
1.66e-05
1.64e-05
1.6e-05
1.58e-05
1.54e-05
1.5e-05
1.48e-05
1.44e-05
1.41e-05
1.37e-05
1.33e-05
1.3e-05
1.26e-05
1.22e-05
1.18e-05
1.15e-05
1.1e-05
1.07e-05
1.02e-05
9.8e-06
9.3e-06
9e-06
8.4e-06
8.1e-06
7.5e-06
7.2e-06
6.6e-06
6.2e-06
5.6e-06
5.2e-06
4.7e-06
4.2e-06
3.6e-06
3.2e-06
2.6e-06
2.1e-06
1.5e-06
1e-06
4e-07
-1e-07
-7e-07
-1.3e-06
-1.9e-06
-2.5e-06
-3e-06
-3.7e-06
-4.3e-06
-4.9e-06
-5.5e-06
-6.2e-06
-6.8e-06
-7.4e-06
-8.1e-06
-8.8e-06
-9.5e-06
-1.01e-05
-1.08e-05
-1.15e-05
-1.22e-05
-1.29e-05
-1.36e-05
-1.44e-05
-1.51e-05
-1.58e-05
-1.65e-05
-1.73e-05
-1.81e-05
-1.88e-05
-1.96e-05
-2.03e-05
-2.12e-05
-2.19e-05
-2.27e-05
-2.36e-05
-2.43e-05
-2.52e-05
-2.6e-05
-2.68e-05
-2.77e-05
-2.85e-05
-2.94e-05
-3.02e-05
-3.11e-05
-3.2e-05
-3.28e-05
-3.37e-05
-3.47e-05
-3.55e-05
-3.64e-05
-3.74e-05
-3.83e-05
-3.91e-05
-4.02e-05
-4.1e-05
-4.21e-05
-4.29e-05
-4.4e-05
-4.48e-05
-4.59e-05
-4.69e-05
-4.78e-05
-4.88e-05
-4.98e-05
-5.08e-05
-5.19e-05
-5.28e-05
-5.39e-05
-5.49e-05
-5.59e-05
-5.7e-05
-5.8e-05
-5.91e-05
-6.01e-05
-6.12e-05
-6.23e-05
-6.33e-05
-6.45e-05
-6.55e-05
-6.66e-05
-6.77e-05
-6.88e-05
-6.99e-05
-7.11e-05
-7.21e-05
-7.33e-05
-7.44e-05
-7.56e-05
-7.67e-05
-7.78e-05
-7.9e-05
8.02e-05
8.13e-05
8.25e-05
8.36e-05
8.49e-05
8.6e-05
8.72e-05
8.84e-05
8.96e-05
9.08e-05
9.2e-05
9.33e-05
9.44e-05
9.57e-05
9.69e-05
9.81e-05
9.93e-05
0.0001006
0.0001019
0.0001031
0.0001043
0.0001056
0.0001068
0.0001081
0.0001094
0.0001107
0.0001119
0.0001132
0.0001145
0.0001158
0.000117
0.0001184
0.0001196
0.000121
0.0001222
0.0001236
0.0001248
0.0001262
0.0001275
0.0001288
0.0001301
0.0001314
0.0001328
0.0001341
0.0001354
0.0001368
0.0001381
0.0001394
0.0001408
0.0001421
0.0001435
0.0001448
0.0001462
0.0001475
0.0001488
0.0001502
0.0001516
0.0001529
0.0001543
0.0001557
0.000157
0.0001583
0.0001598
0.000161
0.0001625
0.0001638
0.0001652
0.0001666
0.0001679
0.0001693
0.0001706
0.0001721
0.0001734
0.0001748
0.0001761
0.0001775
0.0001789
0.0001803
0.0001816
0.000183
0.0001843
0.0001858
0.0001871
0.0001884
0.0001899
0.0001912
0.0001926
0.0001939
0.0001953
0.0001966
0.0001981
0.0001993
0.0002008
0.0002021
0.0002034
0.0002048
0.0002062
0.0002074
0.0002089
0.0002102
0.0002115
0.0002129
0.0002142
0.0002155
0.0002169
0.0002182
0.0002196
0.0002208
0.0002222
0.0002235
0.0002248
0.0002261
0.0002274
0.0002288
0.00023
0.0002313
0.0002327
0.0002339
0.0002352
0.0002365
0.0002377
0.000239
0.0002403
0.0002416
0.0002428
0.0002441
0.0002453
0.0002466
0.0002478
0.000249
0.0002503
0.0002515
0.0002527
0.0002539
0.0002551
0.0002564
0.0002575
0.0002587
0.0002599
0.000261
0.0002623
0.0002634
0.0002645
0.0002657
0.0002669
0.000268
0.0002691
0.0002702
0.0002714
0.0002724
0.0002736
0.0002746
0.0002758
0.0002768
0.0002779
0.0002789
0.00028
0.0002811
0.000282
0.0002832
0.0002841
0.0002851
0.0002862
0.0002871
0.0002881
0.0002891
0.0002901
0.000291
0.0002919
0.0002929
0.0002939
0.0002947
0.0002957
0.0002965
0.0002975
0.0002983
0.0002992
0.0003
0.0003009
0.0003018
0.0003025
0.0003034
0.0003042
0.0003049
0.0003058
0.0003065
0.0003073
0.000308
0.0003088
0.0003095
0.0003102
0.0003109
0.0003115
0.0003123
0.0003129
0.0003136
0.0003142
0.0003149
0.0003154
0.0003161
0.0003166
0.0003172
0.0003178
0.0003183
0.0003189
0.0003194
0.0003199
0.0003203
0.0003209
0.0003213
0.0003218
0.0003222
0.0003226
0.0003231
0.0003234
0.0003239
0.0003241
0.0003246
0.0003249
0.0003252
0.0003255
0.0003257
0.0003261
0.0003263
0.0003266
0.0003268
0.000327
0.0003272
0.0003274
0.0003275
0.0003277
0.0003279
0.0003279
0
0.0003281
0.0003281
0
0.0003282
0.0003282
0
0.0003283
0.0003283
2
0.0003282
0.0003282
0
0.0003281
0.000328
0.0003279
0.0003278
0.0003277
0.0003275
0.0003273
0.0003271
0.0003269
0.0003267
0.0003264
0.0003262
0.0003258
0.0003256
0.0003252
0.0003249
0.0003245
0.0003242
0.0003237
0.0003233
0.0003229
0.0003224
0.000322
0.0003214
0.0003209
0.0003204
0.0003199
0.0003192
0.0003187
0.000318
0.0003174
0.0003167
0.0003161
0.0003153
0.0003146
0.0003139
0.0003132
0.0003123
0.0003116
0.0003107
0.0003098
0.000309
0.0003082
0.0003072
0.0003062
0.0003054
0.0003043
0.0003034
0.0003023
0.0003013
0.0003003
0.0002991
0.0002981
0.0002969
0.0002958
0.0002946
0.0002934
0.0002922
0.0002909
0.0002897
0.0002884
0.0002872
0.0002857
0.0002845
0.000283
0.0002817
0.0002802
0.0002788
0.0002774
0.0002758
0.0002743
0.0002728
0.0002713
0.0002696
0.0002681
0.0002664
0.0002648
0.0002631
0.0002614
0.0002596
0.000258
0.0002561
0.0002544
0.0002525
0.0002508
0.0002488
0.0002469
0.0002451
0.0002431
0.0002411
0.0002392
0.0002371
0.0002351
0.000233
0.000231
0.0002288
0.0002268
0.0002245
0.0002224
0.0002202
0.0002179
0.0002157
0.0002134
0.0002111
0.0002088
0.0002064
0.000204
0.0002017
0.0001992
0.0001967
0.0001943
0.0001918
0.0001892
0.0001867
0.0001841
0.0001815
0.0001789
0.0001762
0.0001736
0.0001708
0.0001681
0.0001654
0.0001625
0.0001598
0.0001569
0.0001541
0.0001512
0.0001483
0.0001454
0.0001424
0.0001394
0.0001365
0.0001334
0.0001303
0.0001272
0.0001242
0.000121
0.0001178
0.0001147
0.0001115
0.0001082
0.0001049
0.0001017
9.84e-05
9.5e-05
9.17e-05
8.82e-05
8.49e-05
8.14e-05
7.8e-05
7.45e-05
7.1e-05
6.74e-05
6.39e-05
6.02e-05
5.67e-05
5.3e-05
4.94e-05
4.57e-05
4.19e-05
3.82e-05
3.45e-05
3.06e-05
2.69e-05
2.3e-05
1.91e-05
1.53e-05
1.13e-05
7.4e-06
3.5e-06
-6e-07
-4.6e-06
-8.6e-06
-1.26e-05
-1.68e-05
-2.09e-05
-2.5e-05
-2.92e-05
-3.33e-05
-3.76e-05
-4.18e-05
-4.61e-05
-5.03e-05
-5.47e-05
-5.9e-05
-6.33e-05
-6.78e-05
-7.21e-05
-7.66e-05
-8.1e-05
-8.55e-05
-9e-05
-9.45e-05
-9.91e-05
-0.0001036
-0.0001083
-0.0001129
-0.0001175
-0.0001222
-0.0001268
-0.0001316
-0.0001363
-0.0001411
-0.0001459
-0.0001507
-0.0001555
-0.0001604
-0.0001652
-0.0001702
-0.000175
-0.00018
-0.000185
-0.00019
-0.000195
-0.0002
-0.0002051
-0.0002101
-0.0002153
-0.0002204
-0.0002255
-0.0002307
-0.0002359
-0.0002411
-0.0002463
-0.0002516
-0.0002569
-0.0002621
-0.0002675
-0.0002729
-0.0002781
-0.0002836
-0.000289
-0.0002944
-0.0002998
-0.0003054
-0.0003108
-0.0003163
-0.0003218
-0.0003274
-0.0003329
-0.0003386
-0.0003441
-0.0003498
-0.0003554
-0.0003611
-0.0003668
-0.0003725
-0.0003782
-0.000384
-0.0003897
-0.0003955
-0.0004013
-0.0004071
-0.000413
-0.0004188
-0.0004247
-0.0004306
-0.0004365
-0.0004425
-0.0004484
-0.0004543
-0.0004603
-0.0004664
-0.0004723
-0.0004784
-0.0004845
-0.0004905
-0.0004966
-0.0005027
-0.0005088
-0.000515
-0.0005211
-0.0005273
-0.0005334
-0.0005397
-0.0005459
-0.0005521
-0.0005584
-0.0005646
-0.0005709
-0.0005772
-0.0005835
-0.0005899
-0.0005961
-0.0006025
-0.0006089
-0.0006153
-0.0006217
-0.000628
-0.0006345
-0.000641
-0.0006473
-0.0006539
-0.0006603
-0.0006668
-0.0006733
-0.0006799
-0.0006863
-0.0006929
-0.0006994
-0.000706
-0.0007126
-0.0007192
-0.0007257
-0.0007324
-0.000739
-0.0007456
-0.0007523
-0.0007589
-0.0007656
-0.0007723
-0.0007789
-0.0007857
-0.0007923
-0.0007991
-0.0008057
-0.0008126
-0.0008192
-0.000826
-0.0008328
-0.0008395
-0.0008463
-0.0008531
-0.0008599
-0.0008667
-0.0008735
-0.0008803
-0.0008871
-0.000894
-0.0009008
-0.0009077
-0.0009145
-0.0009213
-0.0009282
-0.0009351
-0.000942
-0.0009488
-0.0009558
-0.0009626
-0.0009695
-0.0009764
-0.0009834
-0.0009902
-0.0009972
-0.0010041
-0.001011
-0.0010179
-0.0010249
-0.0010318
-0.0010387
-0.0010457
-0.0010526
-0.0010595
-0.0010666
-0.0010734
-0.0010804
-0.0010874
0.0010943
0.0011013
0.0011083
0.0011152
0.0011221
0.0011291
0.0011361
0.0011431
0.00115
0.0011569
0.001164
0.0011709
0.0011778
0.0011848
0.0011918
0.0011987
0.0012057
0.0012126
0.0012195
0.0012266
0.0012334
0.0012404
0.0012474
0.0012543
0.0012612
0.0012681
0.0012751
0.001282
0.0012889
0.0012958
0.0013027
0.0013097
0.0013165
0.0013234
0.0013303
0.0013372
0.0013441
0.0013509
0.0013578
0.0013646
0.0013715
0.0013784
0.0013852
0.001392
0.0013988
0.0014056
0.0014125
0.0014192
0.001426
0.0014328
0.0014396
0.0014464
0.001453
0.0014599
0.0014665
0.0014733
0.00148
0.0014867
0.0014934
0.0015
0.0015068
0.0015133
0.0015201
0.0015266
0.0015333
0.0015399
0.0015465
0.001553
0.0015597
0.0015662
0.0015727
0.0015793
0.0015858
0.0015923
0.0015987
0.0016053
0.0016117
0.0016182
0.0016245
0.001631
0.0016374
0.0016438
0.0016501
0.0016565
0.0016629
0.0016691
0.0016754
0.0016818
0.0016879
0.0016943
0.0017005
0.0017066
0.0017129
0.001719
0.0017253
0.0017313
0.0017375
0.0017435
0.0017497
0.0017556
0.0017618
0.0017677
0.0017738
0.0017797
0.0017857
0.0017917
0.0017975
0.0018035
0.0018093
0.0018151
0.001821
0.0018268
0.0018326
0.0018384
0.001844
0.0018498
0.0018555
0.0018612
0.0018668
0.0018724
0.001878
0.0018836
0.0018891
0.0018947
0.0019001
0.0019056
0.0019111
0.0019165
0.0019219
0.0019272
0.0019326
0.0019379
0.0019432
0.0019484
0.0019537
0.0019589
0.0019641
0.0019692
0.0019743
0.0019795
0.0019845
0.0019895
0.0019946
0.0019995
0.0020045
0.0020094
0.0020143
0.0020191
0.002024
0.0020288
0.0020336
0.0020383
0.002043
0.0020477
0.0020523
0.0020569
0.0020616
0.0020661
0.0020706
0.0020751
0.0020795
0.002084
0.0020884
0.0020927
0.0020971
0.0021013
0.0021056
0.0021099
0.002114
0.0021182
0.0021223
0.0021264
0.0021304
0.0021345
0.0021384
0.0021424
0.0021464
0.0021502
0.002154
0.0021578
0.0021616
0.0021654
0.002169
0.0021728
0.0021763
0.0021799
0.0021835
0.002187
0.0021905
0.0021939
0.0021973
0.0022007
0.002204
0.0022072
0.0022106
0.0022137
0.002217
0.00222
0.0022232
0.0022262
0.0022292
0.0022322
0.0022351
0.0022381
0.0022409
0.0022437
0.0022465
0.0022492
0.0022519
0.0022546
0.0022572
0.0022598
0.0022623
0.0022648
0.0022672
0.0022697
0.002272
0.0022743
0.0022767
0.0022788
0.0022811
0.0022832
0.0022854
0.0022874
0.0022895
0.0022914
0.0022934
0.0022952
0.0022972
0.0022989
0.0023007
0.0023025
0.0023041
0.0023058
0.0023074
0.0023089
0.0023104
0.0023119
0.0023133
0.0023147
0.002316
0.0023173
0.0023185
0.0023197
0.0023209
0.002322
0.002323
0.002324
0.0023251
0.0023259
0.0023268
0.0023277
0.0023284
0.0023292
0.0023298
0.0023305
0.0023311
0.0023317
0.0023322
0.0023326
0.002333
0.0023335
0.0023337
0.002334
0.0023342
0.0023344
0.0023346
0.0023346
0
0.0023347
0.0023346
0.0023346
0
0.0023345
0.0023344
0.0023341
0.0023339
0.0023336
0.0023333
0.0023328
0.0023325
0.0023319
0.0023314
0.0023308
0.0023302
0.0023295
0.0023288
0.002328
0.0023272
0.0023263
0.0023254
0.0023244
0.0023234
0.0023224
0.0023212
0.00232
0.0023189
0.0023175
0.0023163
0.0023149
0.0023135
0.002312
0.0023105
0.002309
0.0023073
0.0023057
0.002304
0.0023023
0.0023004
0.0022986
0.0022967
0.0022948
0.0022927
0.0022907
0.0022886
0.0022864
0.0022843
0.002282
0.0022797
0.0022774
0.002275
0.0022725
0.00227
0.0022675
0.0022649
0.0022623
0.0022596
0.0022568
0.0022541
0.0022512
0.0022483
0.0022454
0.0022424
0.0022394
0.0022363
0.0022331
0.00223
0.0022267
0.0022235
0.0022201
0.0022168
0.0022133
0.0022098
0.0022063
0.0022028
0.0021991
0.0021955
0.0021917
0.0021879
0.0021842
0.0021802
0.0021764
0.0021724
0.0021683
0.0021643
0.0021602
0.0021561
0.0021518
0.0021475
0.0021433
0.0021389
0.0021345
0.0021301
0.0021255
0.002121
0.0021165
0.0021117
0.0021071
0.0021024
0.0020975
0.0020927
0.0020879
0.0020829
0.0020779
0.002073
0.0020678
0.0020627
0.0020576
0.0020523
0.0020471
0.0020418
0.0020365
0.002031
0.0020256
0.0020201
0.0020145
0.002009
0.0020033
0.0019977
0.0019919
0.0019862
0.0019803
0.0019745
0.0019686
0.0019626
0.0019566
0.0019506
0.0019445
0.0019384
0.0019321
0.001926
0.0019197
0.0019133
0.0019071
0.0019006
0.0018941
0.0018877
0.0018811
0.0018746
0.0018679
0.0018613
0.0018546
0.0018478
0.001841
0.0018341
0.0018273
0.0018204
0.0018134
0.0018063
0.0017994
0.0017922
0.0017851
0.0017779
0.0017707
0.0017634
0.0017561
0.0017488
0.0017413
0.001734
0.0017265
0.0017189
0.0017114
0.0017039
0.0016962
0.0016885
0.0016808
0.001673
0.0016653
0.0016574
0.0016495
0.0016417
0.0016336
0.0016257
0.0016177
0.0016096
0.0016015
0.0015933
0.0015852
0.001577
0.0015686
0.0015604
0.0015521
0.0015437
0.0015353
0.0015268
0.0015184
0.0015099
0.0015013
0.0014927
0.0014841
0.0014754
0.0014667
0.001458
0.0014493
0.0014404
0.0014316
0.0014227
0.0014139
0.0014049
0.0013959
0.0013869
0.0013779
0.0013688
0.0013597
0.0013505
0.0013414
0.0013322
0.001323
0.0013137
0.0013044
0.001295
0.0012857
0.0012763
0.0012669
0.0012574
0.001248
0.0012384
0.0012289
0.0012193
0.0012097
0.0012001
0.0011904
0.0011807
0.001171
0.0011612
0.0011515
0.0011417
0.0011318
0.0011219
0.0011121
0.0011022
0.0010922
0.0010823
0.0010722
0.0010622
0.0010522
0.0010422
0.001032
0.0010219
0.0010117
0.0010016
0.0009914
0.0009811
0.0009709
0.0009606
0.0009504
0.00094
0.0009297
0.0009193
0.000909
0.0008985
0.0008881
0.0008777
0.0008671
0.0008567
0.0008462
0.0008356
0.0008251
0.0008145
0.0008039
0.0007933
0.0007827
0.000772
0.0007613
0.0007507
0.0007399
0.0007292
0.0007184
0.0007077
0.0006969
0.0006861
0.0006753
0.0006645
0.0006536
0.0006427
0.0006319
0.000621
0.00061
0.0005992
0.0005882
0.0005772
0.0005663
0.0005552
0.0005443
0.0005333
0.0005222
0.0005113
0.0005001
0.0004891
0.000478
0.000467
0.0004558
0.0004448
0.0004336
0.0004225
0.0004113
0.0004002
0.000389
0.0003779
0.0003667
0.0003555
0.0003443
0.000333
0.0003219
0.0003107
0.0002994
0.0002882
0.0002769
0.0002657
0.0002544
0.0002432
0.0002319
0.0002206
0.0002094
0.000198
0.0001868
0.0001755
0.0001641
0.0001529
0.0001416
0.0001302
0.0001189
0.0001076
9.63e-05
8.5e-05
7.36e-05
6.24e-05
5.09e-05
3.97e-05
2.83e-05
1.7e-05
5.7e-06
-5.7e-06
-1.7e-05
-2.83e-05
-3.97e-05
-5.09e-05
-6.24e-05
-7.36e-05
-8.5e-05
-9.63e-05
-0.0001076
-0.0001189
-0.0001302
-0.0001416
-0.0001529
-0.0001641
-0.0001755
-0.0001868
-0.000198
-0.0002094
-0.0002206
-0.0002319
-0.0002432
-0.0002544
-0.0002657
-0.0002769
-0.0002882
-0.0002994
-0.0003107
-0.0003219
-0.000333
-0.0003443
-0.0003555
-0.0003667
-0.0003779
-0.000389
-0.0004002
-0.0004113
-0.0004225
-0.0004336
-0.0004448
-0.0004558
-0.000467
-0.000478
-0.0004891
-0.0005001
-0.0005113
-0.0005222
-0.0005333
-0.0005443
-0.0005552
-0.0005663
-0.0005772
-0.0005882
-0.0005992
-0.00061
-0.000621
-0.0006319
-0.0006427
-0.0006536
-0.0006645
-0.0006753
-0.0006861
-0.0006969
-0.0007077
-0.0007184
-0.0007292
-0.0007399
-0.0007507
-0.0007613
-0.000772
-0.0007827
-0.0007933
-0.0008039
-0.0008145
-0.0008251
-0.0008356
-0.0008462
-0.0008567
-0.0008671
-0.0008777
-0.0008881
-0.0008985
-0.000909
-0.0009193
-0.0009297
-0.00094
-0.0009504
-0.0009606
-0.0009709
-0.0009811
-0.0009914
-0.0010016
-0.0010117
-0.0010219
-0.001032
-0.0010422
-0.0010522
-0.0010622
-0.0010722
-0.0010823
-0.0010922
-0.0011022
-0.0011121
-0.0011219
-0.0011318
-0.0011417
-0.0011515
-0.0011612
-0.001171
-0.0011807
-0.0011904
-0.0012001
-0.0012097
-0.0012193
-0.0012289
-0.0012384
-0.001248
-0.0012574
-0.0012669
-0.0012763
-0.0012857
-0.001295
-0.0013044
-0.0013137
-0.001323
-0.0013322
-0.0013414
-0.0013505
-0.0013597
-0.0013688
-0.0013779
-0.0013869
-0.0013959
-0.0014049
-0.0014139
-0.0014227
-0.0014316
-0.0014404
-0.0014493
-0.001458
-0.0014667
-0.0014754
-0.0014841
-0.0014927
-0.0015013
-0.0015099
-0.0015184
-0.0015268
-0.0015353
-0.0015437
-0.0015521
-0.0015604
-0.0015686
-0.001577
-0.0015852
-0.0015933
-0.0016015
-0.0016096
-0.0016177
-0.0016257
-0.0016336
-0.0016417
-0.0016495
-0.0016574
-0.0016653
-0.001673
-0.0016808
-0.0016885
-0.0016962
-0.0017039
-0.0017114
-0.0017189
-0.0017265
-0.001734
-0.0017413
-0.0017488
-0.0017561
-0.0017634
-0.0017707
-0.0017779
-0.0017851
-0.0017922
-0.0017994
-0.0018063
-0.0018134
-0.0018204
-0.0018273
-0.0018341
-0.001841
-0.0018478
-0.0018546
-0.0018613
-0.0018679
-0.0018746
-0.0018811
-0.0018877
-0.0018941
-0.0019006
-0.0019071
-0.0019133
-0.0019197
-0.001926
-0.0019321
-0.0019384
-0.0019445
-0.0019506
-0.0019566
-0.0019626
-0.0019686
-0.0019745
-0.0019803
-0.0019862
-0.0019919
-0.0019977
-0.0020033
-0.002009
-0.0020145
-0.0020201
-0.0020256
-0.002031
-0.0020365
-0.0020418
-0.0020471
-0.0020523
-0.0020576
-0.0020627
-0.0020678
-0.002073
-0.0020779
-0.0020829
-0.0020879
-0.0020927
-0.0020975
-0.0021024
-0.0021071
-0.0021117
-0.0021165
-0.002121
-0.0021255
-0.0021301
-0.0021345
-0.0021389
-0.0021433
-0.0021475
-0.0021518
-0.0021561
-0.0021602
-0.0021643
-0.0021683
-0.0021724
-0.0021764
-0.0021802
-0.0021842
-0.0021879
-0.0021917
-0.0021955
-0.0021991
-0.0022028
-0.0022063
-0.0022098
-0.0022133
-0.0022168
-0.0022201
-0.0022235
-0.0022267
-0.00223
-0.0022331
-0.0022363
-0.0022394
-0.0022424
-0.0022454
-0.0022483
-0.0022512
-0.0022541
-0.0022568
-0.0022596
-0.0022623
-0.0022649
-0.0022675
-0.00227
-0.0022725
-0.002275
-0.0022774
-0.0022797
-0.002282
-0.0022843
-0.0022864
-0.0022886
-0.0022907
-0.0022927
-0.0022948
-0.0022967
-0.0022986
-0.0023004
-0.0023023
-0.002304
-0.0023057
-0.0023073
-0.002309
-0.0023105
-0.002312
-0.0023135
-0.0023149
-0.0023163
-0.0023175
-0.0023189
-0.00232
-0.0023212
-0.0023224
-0.0023234
-0.0023244
-0.0023254
-0.0023263
-0.0023272
-0.002328
-0.0023288
-0.0023295
-0.0023302
-0.0023308
-0.0023314
-0.0023319
-0.0023325
-0.0023328
-0.0023333
-0.0023336
-0.0023339
-0.0023341
-0.0023344
-0.0023345
-0.0023346
-0.0023346
0
-0.0023347
-0.0023346
-0.0023346
0
-0.0023344
-0.0023342
-0.002334
-0.0023337
-0.0023335
-0.002333
-0.0023326
-0.0023322
-0.0023317
-0.0023311
-0.0023305
-0.0023298
-0.0023292
-0.0023284
-0.0023277
-0.0023268
-0.0023259
-0.0023251
-0.002324
-0.002323
-0.002322
-0.0023209
-0.0023197
-0.0023185
-0.0023173
-0.002316
-0.0023147
-0.0023133
-0.0023119
-0.0023104
-0.0023089
-0.0023074
-0.0023058
-0.0023041
-0.0023025
-0.0023007
-0.0022989
-0.0022972
-0.0022952
-0.0022934
-0.0022914
-0.0022895
-0.0022874
-0.0022854
-0.0022832
-0.0022811
-0.0022788
-0.0022767
-0.0022743
-0.002272
-0.0022697
-0.0022672
-0.0022648
-0.0022623
-0.0022598
-0.0022572
-0.0022546
-0.0022519
-0.0022492
-0.0022465
-0.0022437
-0.0022409
-0.0022381
-0.0022351
-0.0022322
-0.0022292
-0.0022262
-0.0022232
-0.00222
-0.002217
-0.0022137
-0.0022106
-0.0022072
-0.002204
-0.0022007
-0.0021973
-0.0021939
-0.0021905
-0.002187
-0.0021835
-0.0021799
-0.0021763
-0.0021728
-0.002169
-0.0021654
-0.0021616
-0.0021578
-0.002154
-0.0021502
-0.0021464
-0.0021424
-0.0021384
-0.0021345
-0.0021304
-0.0021264
-0.0021223
-0.0021182
-0.002114
-0.0021099
-0.0021056
-0.0021013
-0.0020971
-0.0020927
-0.0020884
-0.002084
-0.0020795
-0.0020751
-0.0020706
-0.0020661
-0.0020616
-0.0020569
-0.0020523
-0.0020477
-0.002043
-0.0020383
-0.0020336
-0.0020288
-0.002024
-0.0020191
-0.0020143
-0.0020094
-0.0020045
-0.0019995
-0.0019946
-0.0019895
-0.0019845
-0.0019795
-0.0019743
-0.0019692
-0.0019641
-0.0019589
-0.0019537
-0.0019484
-0.0019432
-0.0019379
-0.0019326
-0.0019272
-0.0019219
-0.0019165
-0.0019111
-0.0019056
-0.0019001
-0.0018947
-0.0018891
-0.0018836
-0.001878
-0.0018724
-0.0018668
-0.0018612
-0.0018555
-0.0018498
-0.001844
-0.0018384
-0.0018326
-0.0018268
-0.001821
-0.0018151
-0.0018093
-0.0018035
-0.0017975
-0.0017917
-0.0017857
-0.0017797
-0.0017738
-0.0017677
-0.0017618
-0.0017556
-0.0017497
-0.0017435
-0.0017375
-0.0017313
-0.0017253
-0.001719
-0.0017129
-0.0017066
-0.0017005
-0.0016943
-0.0016879
-0.0016818
-0.0016754
-0.0016691
-0.0016629
-0.0016565
-0.0016501
-0.0016438
-0.0016374
-0.001631
-0.0016245
-0.0016182
-0.0016117
-0.0016053
-0.0015987
-0.0015923
-0.0015858
-0.0015793
-0.0015727
-0.0015662
-0.0015597
-0.001553
-0.0015465
-0.0015399
-0.0015333
-0.0015266
-0.0015201
-0.0015133
-0.0015068
-0.0015
-0.0014934
-0.0014867
-0.00148
-0.0014733
-0.0014665
-0.0014599
-0.001453
-0.0014464
-0.0014396
-0.0014328
-0.001426
-0.0014192
-0.0014125
-0.0014056
-0.0013988
-0.001392
-0.0013852
-0.0013784
-0.0013715
-0.0013646
-0.0013578
-0.0013509
-0.0013441
-0.0013372
-0.0013303
-0.0013234
-0.0013165
-0.0013097
-0.0013027
-0.0012958
-0.0012889
-0.001282
-0.0012751
-0.0012681
-0.0012612
-0.0012543
-0.0012474
-0.0012404
-0.0012334
-0.0012266
-0.0012195
-0.0012126
-0.0012057
-0.0011987
-0.0011918
-0.0011848
-0.0011778
-0.0011709
-0.001164
-0.0011569
-0.00115
-0.0011431
-0.0011361
-0.0011291
-0.0011221
-0.0011152
-0.0011083
-0.0011013
-0.0010943
0.0010874
0.0010804
0.0010734
0.0010666
0.0010595
0.0010526
0.0010457
0.0010387
0.0010318
0.0010249
0.0010179
0.001011
0.0010041
0.0009972
0.0009902
0.0009834
0.0009764
0.0009695
0.0009626
0.0009558
0.0009488
0.000942
0.0009351
0.0009282
0.0009213
0.0009145
0.0009077
0.0009008
0.000894
0.0008871
0.0008803
0.0008735
0.0008667
0.0008599
0.0008531
0.0008463
0.0008395
0.0008328
0.000826
0.0008192
0.0008126
0.0008057
0.0007991
0.0007923
0.0007857
0.0007789
0.0007723
0.0007656
0.0007589
0.0007523
0.0007456
0.000739
0.0007324
0.0007257
0.0007192
0.0007126
0.000706
0.0006994
0.0006929
0.0006863
0.0006799
0.0006733
0.0006668
0.0006603
0.0006539
0.0006473
0.000641
0.0006345
0.000628
0.0006217
0.0006153
0.0006089
0.0006025
0.0005961
0.0005899
0.0005835
0.0005772
0.0005709
0.0005646
0.0005584
0.0005521
0.0005459
0.0005397
0.0005334
0.0005273
0.0005211
0.000515
0.0005088
0.0005027
0.0004966
0.0004905
0.0004845
0.0004784
0.0004723
0.0004664
0.0004603
0.0004543
0.0004484
0.0004425
0.0004365
0.0004306
0.0004247
0.0004188
0.000413
0.0004071
0.0004013
0.0003955
0.0003897
0.000384
0.0003782
0.0003725
0.0003668
0.0003611
0.0003554
0.0003498
0.0003441
0.0003386
0.0003329
0.0003274
0.0003218
0.0003163
0.0003108
0.0003054
0.0002998
0.0002944
0.000289
0.0002836
0.0002781
0.0002729
0.0002675
0.0002621
0.0002569
0.0002516
0.0002463
0.0002411
0.0002359
0.0002307
0.0002255
0.0002204
0.0002153
0.0002101
0.0002051
0.0002
0.000195
0.00019
0.000185
0.00018
0.000175
0.0001702
0.0001652
0.0001604
0.0001555
0.0001507
0.0001459
0.0001411
0.0001363
0.0001316
0.0001268
0.0001222
0.0001175
0.0001129
0.0001083
0.0001036
9.91e-05
9.45e-05
9e-05
8.55e-05
8.1e-05
7.66e-05
7.21e-05
6.78e-05
6.33e-05
5.9e-05
5.47e-05
5.03e-05
4.61e-05
4.18e-05
3.76e-05
3.33e-05
2.92e-05
2.5e-05
2.09e-05
1.68e-05
1.26e-05
8.6e-06
4.6e-06
6e-07
-3.5e-06
-7.4e-06
-1.13e-05
-1.53e-05
-1.91e-05
-2.3e-05
-2.69e-05
-3.06e-05
-3.45e-05
-3.82e-05
-4.19e-05
-4.57e-05
-4.94e-05
-5.3e-05
-5.67e-05
-6.02e-05
-6.39e-05
-6.74e-05
-7.1e-05
-7.45e-05
-7.8e-05
-8.14e-05
-8.49e-05
-8.82e-05
-9.17e-05
-9.5e-05
-9.84e-05
-0.0001017
-0.0001049
-0.0001082
-0.0001115
-0.0001147
-0.0001178
-0.000121
-0.0001242
-0.0001272
-0.0001303
-0.0001334
-0.0001365
-0.0001394
-0.0001424
-0.0001454
-0.0001483
-0.0001512
-0.0001541
-0.0001569
-0.0001598
-0.0001625
-0.0001654
-0.0001681
-0.0001708
-0.0001736
-0.0001762
-0.0001789
-0.0001815
-0.0001841
-0.0001867
-0.0001892
-0.0001918
-0.0001943
-0.0001967
-0.0001992
-0.0002017
-0.000204
-0.0002064
-0.0002088
-0.0002111
-0.0002134
-0.0002157
-0.0002179
-0.0002202
-0.0002224
-0.0002245
-0.0002268
-0.0002288
-0.000231
-0.000233
-0.0002351
-0.0002371
-0.0002392
-0.0002411
-0.0002431
-0.0002451
-0.0002469
-0.0002488
-0.0002508
-0.0002525
-0.0002544
-0.0002561
-0.000258
-0.0002596
-0.0002614
-0.0002631
-0.0002648
-0.0002664
-0.0002681
-0.0002696
-0.0002713
-0.0002728
-0.0002743
-0.0002758
-0.0002774
-0.0002788
-0.0002802
-0.0002817
-0.000283
-0.0002845
-0.0002857
-0.0002872
-0.0002884
-0.0002897
-0.0002909
-0.0002922
-0.0002934
-0.0002946
-0.0002958
-0.0002969
-0.0002981
-0.0002991
-0.0003003
-0.0003013
-0.0003023
-0.0003034
-0.0003043
-0.0003054
-0.0003062
-0.0003072
-0.0003082
-0.000309
-0.0003098
-0.0003107
-0.0003116
-0.0003123
-0.0003132
-0.0003139
-0.0003146
-0.0003153
-0.0003161
-0.0003167
-0.0003174
-0.000318
-0.0003187
-0.0003192
-0.0003199
-0.0003204
-0.0003209
-0.0003214
-0.000322
-0.0003224
-0.0003229
-0.0003233
-0.0003237
-0.0003242
-0.0003245
-0.0003249
-0.0003252
-0.0003256
-0.0003258
-0.0003262
-0.0003264
-0.0003267
-0.0003269
-0.0003271
-0.0003273
-0.0003275
-0.0003277
-0.0003278
-0.0003279
-0.000328
-0.0003281
-0.0003282
-0.0003282
0
-0.0003283
-0.0003283
2
-0.0003282
-0.0003282
0
-0.0003281
-0.0003281
0
-0.0003279
-0.0003279
0
-0.0003277
-0.0003275
-0.0003274
-0.0003272
-0.000327
-0.0003268
-0.0003266
-0.0003263
-0.0003261
-0.0003257
-0.0003255
-0.0003252
-0.0003249
-0.0003246
-0.0003241
-0.0003239
-0.0003234
-0.0003231
-0.0003226
-0.0003222
-0.0003218
-0.0003213
-0.0003209
-0.0003203
-0.0003199
-0.0003194
-0.0003189
-0.0003183
-0.0003178
-0.0003172
-0.0003166
-0.0003161
-0.0003154
-0.0003149
-0.0003142
-0.0003136
-0.0003129
-0.0003123
-0.0003115
-0.0003109
-0.0003102
-0.0003095
-0.0003088
-0.000308
-0.0003073
-0.0003065
-0.0003058
-0.0003049
-0.0003042
-0.0003034
-0.0003025
-0.0003018
-0.0003009
-0.0003
-0.0002992
-0.0002983
-0.0002975
-0.0002965
-0.0002957
-0.0002947
-0.0002939
-0.0002929
-0.0002919
-0.000291
-0.0002901
-0.0002891
-0.0002881
-0.0002871
-0.0002862
-0.0002851
-0.0002841
-0.0002832
-0.000282
-0.0002811
-0.00028
-0.0002789
-0.0002779
-0.0002768
-0.0002758
-0.0002746
-0.0002736
-0.0002724
-0.0002714
-0.0002702
-0.0002691
-0.000268
-0.0002669
-0.0002657
-0.0002645
-0.0002634
-0.0002623
-0.000261
-0.0002599
-0.0002587
-0.0002575
-0.0002564
-0.0002551
-0.0002539
-0.0002527
-0.0002515
-0.0002503
-0.000249
-0.0002478
-0.0002466
-0.0002453
-0.0002441
-0.0002428
-0.0002416
-0.0002403
-0.000239
-0.0002377
-0.0002365
-0.0002352
-0.0002339
-0.0002327
-0.0002313
-0.00023
-0.0002288
-0.0002274
-0.0002261
-0.0002248
-0.0002235
-0.0002222
-0.0002208
-0.0002196
-0.0002182
-0.0002169
-0.0002155
-0.0002142
-0.0002129
-0.0002115
-0.0002102
-0.0002089
-0.0002074
-0.0002062
-0.0002048
-0.0002034
-0.0002021
-0.0002008
-0.0001993
-0.0001981
-0.0001966
-0.0001953
-0.0001939
-0.0001926
-0.0001912
-0.0001899
-0.0001884
-0.0001871
-0.0001858
-0.0001843
-0.000183
-0.0001816
-0.0001803
-0.0001789
-0.0001775
-0.0001761
-0.0001748
-0.0001734
-0.0001721
-0.0001706
-0.0001693
-0.0001679
-0.0001666
-0.0001652
-0.0001638
-0.0001625
-0.000161
-0.0001598
-0.0001583
-0.000157
-0.0001557
-0.0001543
-0.0001529
-0.0001516
-0.0001502
-0.0001488
-0.0001475
-0.0001462
-0.0001448
-0.0001435
-0.0001421
-0.0001408
-0.0001394
-0.0001381
-0.0001368
-0.0001354
-0.0001341
-0.0001328
-0.0001314
-0.0001301
-0.0001288
-0.0001275
-0.0001262
-0.0001248
-0.0001236
-0.0001222
-0.000121
-0.0001196
-0.0001184
-0.000117
-0.0001158
-0.0001145
-0.0001132
-0.0001119
-0.0001107
-0.0001094
-0.0001081
-0.0001068
-0.0001056
-0.0001043
-0.0001031
-0.0001019
-0.0001006
-9.93e-05
-9.81e-05
-9.69e-05
-9.57e-05
-9.44e-05
-9.33e-05
-9.2e-05
-9.08e-05
-8.96e-05
-8.84e-05
-8.72e-05
-8.6e-05
-8.49e-05
-8.36e-05
-8.25e-05
-8.13e-05
-8.02e-05
7.9e-05
7.78e-05
7.67e-05
7.56e-05
7.44e-05
7.33e-05
7.21e-05
7.11e-05
6.99e-05
6.88e-05
6.77e-05
6.66e-05
6.55e-05
6.45e-05
6.33e-05
6.23e-05
6.12e-05
6.01e-05
5.91e-05
5.8e-05
5.7e-05
5.59e-05
5.49e-05
5.39e-05
5.28e-05
5.19e-05
5.08e-05
4.98e-05
4.88e-05
4.78e-05
4.69e-05
4.59e-05
4.48e-05
4.4e-05
4.29e-05
4.21e-05
4.1e-05
4.02e-05
3.91e-05
3.83e-05
3.74e-05
3.64e-05
3.55e-05
3.47e-05
3.37e-05
3.28e-05
3.2e-05
3.11e-05
3.02e-05
2.94e-05
2.85e-05
2.77e-05
2.68e-05
2.6e-05
2.52e-05
2.43e-05
2.36e-05
2.27e-05
2.19e-05
2.12e-05
2.03e-05
1.96e-05
1.88e-05
1.81e-05
1.73e-05
1.65e-05
1.58e-05
1.51e-05
1.44e-05
1.36e-05
1.29e-05
1.22e-05
1.15e-05
1.08e-05
1.01e-05
9.5e-06
8.8e-06
8.1e-06
7.4e-06
6.8e-06
6.2e-06
5.5e-06
4.9e-06
4.3e-06
3.7e-06
3e-06
