# Pulseq sequence file
# Created by PyPulseq

[VERSION]
major 1
minor 2
revision 0

# Format of blocks:
#  #  D RF  GX  GY  GZ ADC EXT
[BLOCKS]
1  0  1   0   0   1  0  0
2  0  0   0   0   2  0  0
3  0  0   3   4   0  1  0
4  0  1   0   0   1  0  0
5  0  0   0   0   2  0  0
6  0  0   5   6   0  1  0
7  0  1   0   0   1  0  0
8  0  0   0   0   2  0  0
9  0  0   7   8   0  1  0

# Format of RF events:
# id amplitude mag_id phase_id delay freq phase
# ..        Hz   ....     ....    us   Hz   rad
[RF]
1      69.2729 1 2 100 0 0

# Format of arbitrary gradients:
# id amplitude shape_id delay
# ..      Hz/m     ....    us
[GRADIENTS]
3      41.9973 3 0
4      41.9976 4 0
5       41.997 5 0
6      41.9974 6 0
7      41.9969 7 0
8      41.9976 8 0

# Format of trapezoid gradients:
# id amplitude rise flat fall delay
# ..      Hz/m   us   us   us    us
[TRAP]
 1       833333 100 3000 100   0
 2 -2.93561e+06 350   90 350   0

# Format of ADC events:
# id num dwell delay freq phase
# ..  ..    ns    us   Hz   rad
[ADC]
1 17950 2000 0 0 0

# Sequence Shapes
[SHAPES]

shape_id 1
num_samples 3030
1.4e-07
4.2e-07
7e-07
9.8e-07
1.26e-06
1.54e-06
1.83e-06
2.11e-06
2.39e-06
2.67e-06
2.95e-06
3.24e-06
3.52e-06
3.8e-06
4.08e-06
4.37e-06
4.65e-06
4.93e-06
5.21e-06
5.5e-06
5.77e-06
6.06e-06
6.33e-06
6.62e-06
6.9e-06
7.17e-06
7.45e-06
7.73e-06
8.01e-06
8.28e-06
8.55e-06
8.83e-06
9.11e-06
9.37e-06
9.65e-06
9.92e-06
1.018e-05
1.045e-05
1.072e-05
1.099e-05
1.124e-05
1.151e-05
1.178e-05
1.203e-05
1.228e-05
1.255e-05
1.28e-05
1.305e-05
1.331e-05
1.355e-05
1.38e-05
1.405e-05
1.429e-05
1.453e-05
1.478e-05
1.501e-05
1.524e-05
1.548e-05
1.572e-05
1.594e-05
1.616e-05
1.64e-05
1.661e-05
1.683e-05
1.706e-05
1.726e-05
1.748e-05
1.768e-05
1.79e-05
1.809e-05
1.83e-05
1.85e-05
1.869e-05
1.888e-05
1.907e-05
1.926e-05
1.944e-05
1.963e-05
1.98e-05
1.997e-05
2.014e-05
2.031e-05
2.047e-05
2.064e-05
2.079e-05
2.094e-05
2.109e-05
2.124e-05
2.139e-05
2.152e-05
2.165e-05
2.179e-05
2.191e-05
2.204e-05
2.216e-05
2.227e-05
2.238e-05
2.249e-05
2.26e-05
2.269e-05
2.279e-05
2.288e-05
2.297e-05
2.305e-05
2.312e-05
2.32e-05
2.327e-05
2.333e-05
2.34e-05
2.345e-05
2.349e-05
2.355e-05
2.359e-05
2.362e-05
2.365e-05
2.369e-05
2.37e-05
2.372e-05
2.373e-05
2.374e-05
2.375e-05
2.374e-05
2.373e-05
2.372e-05
2.37e-05
2.367e-05
2.365e-05
2.362e-05
2.357e-05
2.353e-05
2.348e-05
2.342e-05
2.336e-05
2.33e-05
2.322e-05
2.315e-05
2.306e-05
2.297e-05
2.288e-05
2.278e-05
2.267e-05
2.256e-05
2.244e-05
2.232e-05
2.218e-05
2.205e-05
2.191e-05
2.177e-05
2.161e-05
2.144e-05
2.129e-05
2.111e-05
2.093e-05
2.075e-05
2.056e-05
2.036e-05
2.016e-05
1.995e-05
1.973e-05
1.952e-05
1.928e-05
1.905e-05
1.881e-05
1.856e-05
1.831e-05
1.804e-05
1.778e-05
1.751e-05
1.723e-05
1.694e-05
1.664e-05
1.635e-05
1.604e-05
1.572e-05
1.541e-05
1.508e-05
1.475e-05
1.441e-05
1.405e-05
1.371e-05
1.335e-05
1.298e-05
1.26e-05
1.222e-05
1.184e-05
1.144e-05
1.104e-05
1.063e-05
1.021e-05
9.79e-06
9.37e-06
8.92e-06
8.49e-06
8.03e-06
7.57e-06
7.11e-06
6.64e-06
6.16e-06
5.68e-06
5.18e-06
4.68e-06
4.18e-06
3.66e-06
3.14e-06
2.61e-06
2.08e-06
1.53e-06
9.8e-07
4.3e-07
-1.3e-07
-7.1e-07
-1.28e-06
-1.87e-06
-2.46e-06
-3.07e-06
-3.66e-06
-4.29e-06
-4.9e-06
-5.53e-06
-6.16e-06
-6.81e-06
-7.46e-06
-8.11e-06
-8.78e-06
-9.45e-06
-1.013e-05
-1.081e-05
-1.15e-05
-1.22e-05
-1.291e-05
-1.363e-05
-1.434e-05
-1.507e-05
-1.581e-05
-1.655e-05
-1.729e-05
-1.805e-05
-1.882e-05
-1.958e-05
-2.037e-05
-2.114e-05
-2.194e-05
-2.274e-05
-2.353e-05
-2.436e-05
-2.517e-05
-2.599e-05
-2.683e-05
-2.767e-05
-2.851e-05
-2.937e-05
-3.022e-05
-3.11e-05
-3.196e-05
-3.285e-05
-3.374e-05
-3.462e-05
-3.553e-05
-3.643e-05
-3.735e-05
-3.827e-05
-3.92e-05
-4.013e-05
-4.106e-05
-4.202e-05
-4.297e-05
-4.392e-05
-4.49e-05
-4.586e-05
-4.685e-05
-4.783e-05
-4.882e-05
-4.981e-05
-5.083e-05
-5.183e-05
-5.285e-05
-5.387e-05
-5.49e-05
-5.593e-05
-5.697e-05
-5.802e-05
-5.908e-05
-6.013e-05
-6.12e-05
-6.226e-05
-6.335e-05
-6.442e-05
-6.551e-05
-6.661e-05
-6.77e-05
-6.881e-05
-6.992e-05
-7.104e-05
-7.216e-05
-7.328e-05
-7.442e-05
-7.555e-05
-7.67e-05
-7.784e-05
-7.9e-05
8.016e-05
8.132e-05
8.249e-05
8.366e-05
8.484e-05
8.602e-05
8.722e-05
8.84e-05
8.961e-05
9.081e-05
9.201e-05
9.323e-05
9.444e-05
9.567e-05
9.689e-05
9.812e-05
9.935e-05
0.0001006
0.00010183
0.00010309
0.00010433
0.00010559
0.00010685
0.00010811
0.00010938
0.00011065
0.00011193
0.0001132
0.00011448
0.00011577
0.00011706
0.00011835
0.00011965
0.00012094
0.00012225
0.00012355
0.00012486
0.00012618
0.00012748
0.00012881
0.00013012
0.00013145
0.00013277
0.0001341
0.00013543
0.00013676
0.0001381
0.00013944
0.00014077
0.00014212
0.00014346
0.00014481
0.00014616
0.00014751
0.00014885
0.00015022
0.00015156
0.00015293
0.00015428
0.00015564
0.000157
0.00015836
0.00015973
0.00016109
0.00016246
0.00016382
0.00016519
0.00016656
0.00016792
0.0001693
0.00017066
0.00017203
0.00017341
0.00017477
0.00017614
0.00017752
0.00017888
0.00018026
0.00018162
0.000183
0.00018436
0.00018574
0.0001871
0.00018847
0.00018983
0.00019121
0.00019256
0.00019394
0.00019529
0.00019666
0.00019802
0.00019937
0.00020074
0.00020209
0.00020344
0.0002048
0.00020615
0.0002075
0.00020884
0.00021019
0.00021153
0.00021287
0.00021421
0.00021555
0.00021688
0.0002182
0.00021954
0.00022085
0.00022218
0.0002235
0.00022481
0.00022612
0.00022743
0.00022873
0.00023004
0.00023133
0.00023262
0.00023392
0.0002352
0.00023648
0.00023775
0.00023903
0.0002403
0.00024156
0.00024281
0.00024408
0.00024532
0.00024656
0.00024781
0.00024903
0.00025027
0.00025149
0.00025271
0.00025391
0.00025513
0.00025632
0.00025752
0.00025871
0.00025989
0.00026107
0.00026224
0.00026339
0.00026456
0.00026571
0.00026685
0.00026798
0.00026912
0.00027023
0.00027135
0.00027246
0.00027356
0.00027465
0.00027574
0.00027682
0.00027788
0.00027894
0.00028
0.00028104
0.00028208
0.00028311
0.00028413
0.00028514
0.00028614
0.00028713
0.00028812
0.00028909
0.00029006
0.00029102
0.00029196
0.0002929
0.00029383
0.00029475
0.00029566
0.00029655
0.00029745
0.00029832
0.00029919
0.00030005
0.00030089
0.00030174
0.00030255
0.00030338
0.00030417
0.00030497
0.00030575
0.00030652
0.00030728
0.00030802
0.00030877
0.00030948
0.0003102
0.0003109
0.00031158
0.00031226
0.00031293
0.00031357
0.00031422
0.00031484
0.00031545
0.00031606
0.00031664
0.00031721
0.00031778
0.00031832
0.00031886
0.00031938
0.00031989
0.00032038
0.00032086
0.00032133
0.00032177
0.00032222
0.00032264
0.00032305
0.00032344
0.00032382
0.00032419
0.00032454
0.00032487
0.00032519
0.0003255
0.00032579
0.00032607
0.00032632
0.00032657
0.00032679
0.00032701
0.00032721
0.00032738
0.00032755
0.0003277
0.00032783
0.00032795
0.00032805
0.00032813
0.00032819
0.00032825
0.00032827
0.0003283
0.00032829
0.00032827
0.00032824
0.00032818
0.00032811
0.00032803
0.00032792
0.00032779
0.00032765
0.0003275
0.00032731
0.00032712
0.00032691
0.00032667
0.00032642
0.00032615
0.00032587
0.00032556
0.00032523
0.00032489
0.00032452
0.00032415
0.00032374
0.00032332
0.00032288
0.00032241
0.00032194
0.00032145
0.00032092
0.00032038
0.00031983
0.00031925
0.00031864
0.00031803
0.0003174
0.00031673
0.00031605
0.00031535
0.00031464
0.00031389
0.00031313
0.00031234
0.00031154
0.00031072
0.00030987
0.00030901
0.00030811
0.00030721
0.00030628
0.00030532
0.00030435
0.00030336
0.00030233
0.0003013
0.00030024
0.00029916
0.00029805
0.00029692
0.00029578
0.0002946
0.00029341
0.0002922
0.00029096
0.0002897
0.00028841
0.00028711
0.00028578
0.00028443
0.00028306
0.00028166
0.00028024
0.0002788
0.00027733
0.00027585
0.00027433
0.0002728
0.00027124
0.00026966
0.00026805
0.00026642
0.00026478
0.00026309
0.0002614
0.00025968
0.00025793
0.00025616
0.00025436
0.00025255
0.0002507
0.00024884
0.00024695
0.00024503
0.0002431
0.00024113
0.00023915
0.00023714
0.0002351
0.00023304
0.00023096
0.00022885
0.00022672
0.00022456
0.00022238
0.00022018
0.00021794
0.00021568
0.00021341
0.0002111
0.00020878
0.00020641
0.00020404
0.00020164
0.0001992
0.00019675
0.00019428
0.00019177
0.00018924
0.00018668
0.00018411
0.00018151
0.00017887
0.00017622
0.00017355
0.00017083
0.00016811
0.00016536
0.00016257
0.00015977
0.00015694
0.00015409
0.0001512
0.0001483
0.00014537
0.00014241
0.00013943
0.00013642
0.00013339
0.00013033
0.00012725
0.00012414
0.00012101
0.00011785
0.00011467
0.00011145
0.00010822
0.00010496
0.00010168
9.836e-05
9.503e-05
9.167e-05
8.828e-05
8.487e-05
8.143e-05
7.797e-05
7.448e-05
7.097e-05
6.742e-05
6.387e-05
6.028e-05
5.666e-05
5.302e-05
4.936e-05
4.568e-05
4.195e-05
3.822e-05
3.445e-05
3.066e-05
2.685e-05
2.301e-05
1.914e-05
1.525e-05
1.134e-05
7.4e-06
3.43e-06
-5.5e-07
-4.57e-06
-8.61e-06
-1.267e-05
-1.676e-05
-2.088e-05
-2.501e-05
-2.917e-05
-3.336e-05
-3.757e-05
-4.181e-05
-4.607e-05
-5.035e-05
-5.466e-05
-5.899e-05
-6.335e-05
-6.774e-05
-7.213e-05
-7.657e-05
-8.103e-05
-8.55e-05
-9e-05
-9.453e-05
-9.908e-05
-0.00010365
-0.00010825
-0.00011287
-0.00011751
-0.00012218
-0.00012687
-0.00013159
-0.00013633
-0.00014109
-0.00014587
-0.00015068
-0.00015551
-0.00016037
-0.00016524
-0.00017014
-0.00017507
-0.00018001
-0.00018498
-0.00018997
-0.00019498
-0.00020002
-0.00020508
-0.00021015
-0.00021526
-0.00022039
-0.00022553
-0.0002307
-0.00023589
-0.0002411
-0.00024633
-0.0002516
-0.00025686
-0.00026217
-0.00026749
-0.00027283
-0.00027818
-0.00028358
-0.00028898
-0.0002944
-0.00029985
-0.00030531
-0.0003108
-0.00031631
-0.00032184
-0.00032738
-0.00033296
-0.00033854
-0.00034415
-0.00034978
-0.00035543
-0.00036109
-0.00036678
-0.00037249
-0.00037821
-0.00038396
-0.00038972
-0.00039551
-0.0004013
-0.00040713
-0.00041297
-0.00041882
-0.0004247
-0.0004306
-0.00043651
-0.00044243
-0.00044839
-0.00045435
-0.00046034
-0.00046633
-0.00047236
-0.00047839
-0.00048444
-0.00049052
-0.0004966
-0.0005027
-0.00050883
-0.00051496
-0.00052111
-0.00052728
-0.00053347
-0.00053967
-0.00054588
-0.00055212
-0.00055837
-0.00056462
-0.00057091
-0.0005772
-0.00058351
-0.00058983
-0.00059617
-0.00060253
-0.00060888
-0.00061527
-0.00062167
-0.00062807
-0.0006345
-0.00064093
-0.00064738
-0.00065384
-0.00066032
-0.00066681
-0.00067331
-0.00067982
-0.00068635
-0.00069289
-0.00069944
-0.00070601
-0.00071258
-0.00071916
-0.00072577
-0.00073237
-0.00073899
-0.00074563
-0.00075227
-0.00075892
-0.00076559
-0.00077226
-0.00077894
-0.00078564
-0.00079234
-0.00079906
-0.00080578
-0.00081251
-0.00081926
-0.000826
-0.00083277
-0.00083953
-0.00084631
-0.0008531
-0.00085988
-0.00086669
-0.0008735
-0.00088031
-0.00088714
-0.00089396
-0.00090081
-0.00090765
-0.0009145
-0.00092135
-0.00092822
-0.00093509
-0.00094197
-0.00094885
-0.00095573
-0.00096263
-0.00096952
-0.00097643
-0.00098333
-0.00099024
-0.00099716
-0.00100408
-0.001011
-0.00101793
-0.00102486
-0.0010318
-0.00103873
-0.00104568
-0.00105262
-0.00105956
-0.00106651
-0.00107346
-0.00108042
-0.00108737
0.00109433
0.00110128
0.00110824
0.0011152
0.00112216
0.00112913
0.00113608
0.00114304
0.00115001
0.00115697
0.00116392
0.00117089
0.00117785
0.0011848
0.00119177
0.00119871
0.00120567
0.00121263
0.00121957
0.00122652
0.00123346
0.00124041
0.00124734
0.00125429
0.00126121
0.00126814
0.00127507
0.00128199
0.0012889
0.00129582
0.00130273
0.00130963
0.00131652
0.00132342
0.00133031
0.00133719
0.00134406
0.00135093
0.0013578
0.00136465
0.0013715
0.00137835
0.00138517
0.00139201
0.00139883
0.00140564
0.00141244
0.00141924
0.00142602
0.00143281
0.00143957
0.00144634
0.00145308
0.00145983
0.00146656
0.00147327
0.00147999
0.00148669
0.00149338
0.00150006
0.00150673
0.00151338
0.00152003
0.00152666
0.00153328
0.00153989
0.00154649
0.00155307
0.00155963
0.0015662
0.00157274
0.00157927
0.00158579
0.00159229
0.00159877
0.00160525
0.00161171
0.00161815
0.00162459
0.00163099
0.0016374
0.00164377
0.00165014
0.00165649
0.00166283
0.00166914
0.00167544
0.00168172
0.00168799
0.00169424
0.00170046
0.00170668
0.00171287
0.00171905
0.0017252
0.00173134
0.00173746
0.00174356
0.00174964
0.0017557
0.00176174
0.00176776
0.00177375
0.00177974
0.0017857
0.00179163
0.00179755
0.00180344
0.00180931
0.00181517
0.00182099
0.0018268
0.00183258
0.00183834
0.00184409
0.00184979
0.00185549
0.00186115
0.0018668
0.00187242
0.00187801
0.00188359
0.00188913
0.00189465
0.00190015
0.00190561
0.00191107
0.00191648
0.00192188
0.00192724
0.00193259
0.0019379
0.00194319
0.00194845
0.00195368
0.00195889
0.00196407
0.00196922
0.00197434
0.00197944
0.0019845
0.00198954
0.00199455
0.00199953
0.00200448
0.0020094
0.00201429
0.00201916
0.00202399
0.00202878
0.00203356
0.00203831
0.00204301
0.00204768
0.00205234
0.00205695
0.00206154
0.00206609
0.00207062
0.0020751
0.00207955
0.00208399
0.00208837
0.00209273
0.00209706
0.00210135
0.00210561
0.00210983
0.00211402
0.00211818
0.00212231
0.00212639
0.00213045
0.00213446
0.00213846
0.0021424
0.00214631
0.00215019
0.00215404
0.00215784
0.00216162
0.00216535
0.00216905
0.00217271
0.00217633
0.00217993
0.00218348
0.00218699
0.00219047
0.00219391
0.00219731
0.00220067
0.002204
0.00220729
0.00221054
0.00221375
0.00221693
0.00222005
0.00222316
0.00222621
0.00222922
0.0022322
0.00223514
0.00223804
0.00224089
0.00224371
0.00224649
0.00224923
0.00225192
0.00225458
0.0022572
0.00225977
0.0022623
0.0022648
0.00226724
0.00226966
0.00227202
0.00227435
0.00227663
0.00227887
0.00228107
0.00228323
0.00228535
0.00228742
0.00228944
0.00229144
0.00229338
0.00229527
0.00229714
0.00229895
0.00230072
0.00230244
0.00230413
0.00230577
0.00230737
0.00230891
0.00231042
0.00231189
0.0023133
0.00231468
0.002316
0.00231729
0.00231853
0.00231973
0.00232087
0.00232197
0.00232304
0.00232405
0.00232502
0.00232593
0.00232682
0.00232765
0.00232843
0.00232917
0.00232986
0.00233051
0.0023311
0.00233167
0.00233217
0.00233263
0.00233304
0.00233341
0.00233373
0.00233401
0.00233423
0.00233441
0.00233455
0.00233463
0.00233466
0.00233466
0
0.0023346
0.0023345
0.00233434
0.00233415
0.00233389
0.00233361
0.00233325
0.00233287
0.00233243
0.00233194
0.00233141
0.00233082
0.00233019
0.00232952
0.00232878
0.00232801
0.00232718
0.00232631
0.00232538
0.00232442
0.0023234
0.00232233
0.00232121
0.00232005
0.00231883
0.00231757
0.00231626
0.0023149
0.00231348
0.00231203
0.00231053
0.00230896
0.00230736
0.0023057
0.002304
0.00230225
0.00230044
0.0022986
0.00229669
0.00229474
0.00229274
0.0022907
0.0022886
0.00228645
0.00228425
0.00228201
0.00227971
0.00227737
0.00227497
0.00227254
0.00227004
0.00226749
0.00226491
0.00226227
0.00225958
0.00225683
0.00225405
0.00225122
0.00224832
0.00224539
0.00224241
0.00223937
0.00223628
0.00223316
0.00222997
0.00222674
0.00222345
0.00222013
0.00221675
0.00221332
0.00220985
0.00220632
0.00220274
0.00219912
0.00219544
0.00219173
0.00218795
0.00218414
0.00218026
0.00217635
0.00217238
0.00216837
0.0021643
0.0021602
0.00215603
0.00215182
0.00214757
0.00214326
0.00213891
0.0021345
0.00213006
0.00212556
0.00212101
0.00211641
0.00211177
0.00210709
0.00210234
0.00209756
0.00209273
0.00208784
0.00208292
0.00207794
0.00207291
0.00206785
0.00206273
0.00205756
0.00205235
0.00204709
0.00204178
0.00203643
0.00203104
0.00202558
0.00202009
0.00201456
0.00200896
0.00200334
0.00199766
0.00199193
0.00198616
0.00198035
0.00197448
0.00196858
0.00196262
0.00195663
0.00195058
0.00194449
0.00193836
0.00193218
0.00192595
0.00191969
0.00191337
0.00190701
0.00190061
0.00189417
0.00188767
0.00188114
0.00187455
0.00186794
0.00186127
0.00185455
0.00184781
0.001841
0.00183417
0.00182728
0.00182036
0.00181339
0.00180638
0.00179932
0.00179222
0.00178509
0.00177791
0.00177068
0.00176342
0.00175611
0.00174877
0.00174138
0.00173395
0.00172647
0.00171897
0.00171141
0.00170382
0.00169618
0.00168851
0.0016808
0.00167305
0.00166525
0.00165742
0.00164954
0.00164164
0.00163368
0.00162569
0.00161767
0.0016096
0.00160149
0.00159335
0.00158517
0.00157694
0.0015687
0.00156039
0.00155207
0.00154369
0.00153529
0.00152685
0.00151837
0.00150985
0.0015013
0.00149271
0.00148409
0.00147543
0.00146673
0.001458
0.00144924
0.00144044
0.0014316
0.00142274
0.00141383
0.00140489
0.00139592
0.00138692
0.00137788
0.0013688
0.0013597
0.00135057
0.00134139
0.00133219
0.00132296
0.00131369
0.00130439
0.00129506
0.0012857
0.0012763
0.00126688
0.00125743
0.00124794
0.00123843
0.00122888
0.00121931
0.0012097
0.00120007
0.00119041
0.00118071
0.00117099
0.00116125
0.00115146
0.00114166
0.00113183
0.00112197
0.00111207
0.00110217
0.00109222
0.00108225
0.00107225
0.00106224
0.00105219
0.00104211
0.00103202
0.00102189
0.00101175
0.00100157
0.00099137
0.00098115
0.00097091
0.00096063
0.00095035
0.00094002
0.00092969
0.00091932
0.00090894
0.00089854
0.0008881
0.00087765
0.00086718
0.00085669
0.00084617
0.00083564
0.00082508
0.00081451
0.00080391
0.00079329
0.00078266
0.000772
0.00076134
0.00075063
0.00073993
0.0007292
0.00071845
0.00070769
0.00069691
0.00068611
0.00067529
0.00066446
0.00065361
0.00064275
0.00063186
0.00062097
0.00061006
0.00059913
0.00058819
0.00057723
0.00056627
0.00055528
0.00054428
0.00053327
0.00052225
0.00051121
0.00050016
0.0004891
0.00047803
0.00046694
0.00045584
0.00044473
0.00043362
0.00042248
0.00041135
0.00040019
0.00038903
0.00037786
0.00036668
0.0003555
0.00034429
0.00033309
0.00032188
0.00031065
0.00029942
0.00028819
0.00027694
0.00026569
0.00025444
0.00024316
0.0002319
0.00022063
0.00020934
0.00019805
0.00018677
0.00017547
0.00016417
0.00015286
0.00014155
0.00013025
0.00011893
0.00010761
9.629e-05
8.497e-05
7.364e-05
6.232e-05
5.099e-05
3.966e-05
2.833e-05
1.699e-05
5.67e-06
-5.67e-06
-1.699e-05
-2.833e-05
-3.966e-05
-5.099e-05
-6.232e-05
-7.364e-05
-8.497e-05
-9.629e-05
-0.00010761
-0.00011893
-0.00013025
-0.00014155
-0.00015286
-0.00016417
-0.00017547
-0.00018677
-0.00019805
-0.00020934
-0.00022063
-0.0002319
-0.00024316
-0.00025444
-0.00026569
-0.00027694
-0.00028819
-0.00029942
-0.00031065
-0.00032188
-0.00033309
-0.00034429
-0.0003555
-0.00036668
-0.00037786
-0.00038903
-0.00040019
-0.00041135
-0.00042248
-0.00043362
-0.00044473
-0.00045584
-0.00046694
-0.00047803
-0.0004891
-0.00050016
-0.00051121
-0.00052225
-0.00053327
-0.00054428
-0.00055528
-0.00056627
-0.00057723
-0.00058819
-0.00059913
-0.00061006
-0.00062097
-0.00063186
-0.00064275
-0.00065361
-0.00066446
-0.00067529
-0.00068611
-0.00069691
-0.00070769
-0.00071845
-0.0007292
-0.00073993
-0.00075063
-0.00076134
-0.000772
-0.00078266
-0.00079329
-0.00080391
-0.00081451
-0.00082508
-0.00083564
-0.00084617
-0.00085669
-0.00086718
-0.00087765
-0.0008881
-0.00089854
-0.00090894
-0.00091932
-0.00092969
-0.00094002
-0.00095035
-0.00096063
-0.00097091
-0.00098115
-0.00099137
-0.00100157
-0.00101175
-0.00102189
-0.00103202
-0.00104211
-0.00105219
-0.00106224
-0.00107225
-0.00108225
-0.00109222
-0.00110217
-0.00111207
-0.00112197
-0.00113183
-0.00114166
-0.00115146
-0.00116125
-0.00117099
-0.00118071
-0.00119041
-0.00120007
-0.0012097
-0.00121931
-0.00122888
-0.00123843
-0.00124794
-0.00125743
-0.00126688
-0.0012763
-0.0012857
-0.00129506
-0.00130439
-0.00131369
-0.00132296
-0.00133219
-0.00134139
-0.00135057
-0.0013597
-0.0013688
-0.00137788
-0.00138692
-0.00139592
-0.00140489
-0.00141383
-0.00142274
-0.0014316
-0.00144044
-0.00144924
-0.001458
-0.00146673
-0.00147543
-0.00148409
-0.00149271
-0.0015013
-0.00150985
-0.00151837
-0.00152685
-0.00153529
-0.00154369
-0.00155207
-0.00156039
-0.0015687
-0.00157694
-0.00158517
-0.00159335
-0.00160149
-0.0016096
-0.00161767
-0.00162569
-0.00163368
-0.00164164
-0.00164954
-0.00165742
-0.00166525
-0.00167305
-0.0016808
-0.00168851
-0.00169618
-0.00170382
-0.00171141
-0.00171897
-0.00172647
-0.00173395
-0.00174138
-0.00174877
-0.00175611
-0.00176342
-0.00177068
-0.00177791
-0.00178509
-0.00179222
-0.00179932
-0.00180638
-0.00181339
-0.00182036
-0.00182728
-0.00183417
-0.001841
-0.00184781
-0.00185455
-0.00186127
-0.00186794
-0.00187455
-0.00188114
-0.00188767
-0.00189417
-0.00190061
-0.00190701
-0.00191337
-0.00191969
-0.00192595
-0.00193218
-0.00193836
-0.00194449
-0.00195058
-0.00195663
-0.00196262
-0.00196858
-0.00197448
-0.00198035
-0.00198616
-0.00199193
-0.00199766
-0.00200334
-0.00200896
-0.00201456
-0.00202009
-0.00202558
-0.00203104
-0.00203643
-0.00204178
-0.00204709
-0.00205235
-0.00205756
-0.00206273
-0.00206785
-0.00207291
-0.00207794
-0.00208292
-0.00208784
-0.00209273
-0.00209756
-0.00210234
-0.00210709
-0.00211177
-0.00211641
-0.00212101
-0.00212556
-0.00213006
-0.0021345
-0.00213891
-0.00214326
-0.00214757
-0.00215182
-0.00215603
-0.0021602
-0.0021643
-0.00216837
-0.00217238
-0.00217635
-0.00218026
-0.00218414
-0.00218795
-0.00219173
-0.00219544
-0.00219912
-0.00220274
-0.00220632
-0.00220985
-0.00221332
-0.00221675
-0.00222013
-0.00222345
-0.00222674
-0.00222997
-0.00223316
-0.00223628
-0.00223937
-0.00224241
-0.00224539
-0.00224832
-0.00225122
-0.00225405
-0.00225683
-0.00225958
-0.00226227
-0.00226491
-0.00226749
-0.00227004
-0.00227254
-0.00227497
-0.00227737
-0.00227971
-0.00228201
-0.00228425
-0.00228645
-0.0022886
-0.0022907
-0.00229274
-0.00229474
-0.00229669
-0.0022986
-0.00230044
-0.00230225
-0.002304
-0.0023057
-0.00230736
-0.00230896
-0.00231053
-0.00231203
-0.00231348
-0.0023149
-0.00231626
-0.00231757
-0.00231883
-0.00232005
-0.00232121
-0.00232233
-0.0023234
-0.00232442
-0.00232538
-0.00232631
-0.00232718
-0.00232801
-0.00232878
-0.00232952
-0.00233019
-0.00233082
-0.00233141
-0.00233194
-0.00233243
-0.00233287
-0.00233325
-0.00233361
-0.00233389
-0.00233415
-0.00233434
-0.0023345
-0.0023346
-0.00233466
-0.00233466
0
-0.00233463
-0.00233455
-0.00233441
-0.00233423
-0.00233401
-0.00233373
-0.00233341
-0.00233304
-0.00233263
-0.00233217
-0.00233167
-0.0023311
-0.00233051
-0.00232986
-0.00232917
-0.00232843
-0.00232765
-0.00232682
-0.00232593
-0.00232502
-0.00232405
-0.00232304
-0.00232197
-0.00232087
-0.00231973
-0.00231853
-0.00231729
-0.002316
-0.00231468
-0.0023133
-0.00231189
-0.00231042
-0.00230891
-0.00230737
-0.00230577
-0.00230413
-0.00230244
-0.00230072
-0.00229895
-0.00229714
-0.00229527
-0.00229338
-0.00229144
-0.00228944
-0.00228742
-0.00228535
-0.00228323
-0.00228107
-0.00227887
-0.00227663
-0.00227435
-0.00227202
-0.00226966
-0.00226724
-0.0022648
-0.0022623
-0.00225977
-0.0022572
-0.00225458
-0.00225192
-0.00224923
-0.00224649
-0.00224371
-0.00224089
-0.00223804
-0.00223514
-0.0022322
-0.00222922
-0.00222621
-0.00222316
-0.00222005
-0.00221693
-0.00221375
-0.00221054
-0.00220729
-0.002204
-0.00220067
-0.00219731
-0.00219391
-0.00219047
-0.00218699
-0.00218348
-0.00217993
-0.00217633
-0.00217271
-0.00216905
-0.00216535
-0.00216162
-0.00215784
-0.00215404
-0.00215019
-0.00214631
-0.0021424
-0.00213846
-0.00213446
-0.00213045
-0.00212639
-0.00212231
-0.00211818
-0.00211402
-0.00210983
-0.00210561
-0.00210135
-0.00209706
-0.00209273
-0.00208837
-0.00208399
-0.00207955
-0.0020751
-0.00207062
-0.00206609
-0.00206154
-0.00205695
-0.00205234
-0.00204768
-0.00204301
-0.00203831
-0.00203356
-0.00202878
-0.00202399
-0.00201916
-0.00201429
-0.0020094
-0.00200448
-0.00199953
-0.00199455
-0.00198954
-0.0019845
-0.00197944
-0.00197434
-0.00196922
-0.00196407
-0.00195889
-0.00195368
-0.00194845
-0.00194319
-0.0019379
-0.00193259
-0.00192724
-0.00192188
-0.00191648
-0.00191107
-0.00190561
-0.00190015
-0.00189465
-0.00188913
-0.00188359
-0.00187801
-0.00187242
-0.0018668
-0.00186115
-0.00185549
-0.00184979
-0.00184409
-0.00183834
-0.00183258
-0.0018268
-0.00182099
-0.00181517
-0.00180931
-0.00180344
-0.00179755
-0.00179163
-0.0017857
-0.00177974
-0.00177375
-0.00176776
-0.00176174
-0.0017557
-0.00174964
-0.00174356
-0.00173746
-0.00173134
-0.0017252
-0.00171905
-0.00171287
-0.00170668
-0.00170046
-0.00169424
-0.00168799
-0.00168172
-0.00167544
-0.00166914
-0.00166283
-0.00165649
-0.00165014
-0.00164377
-0.0016374
-0.00163099
-0.00162459
-0.00161815
-0.00161171
-0.00160525
-0.00159877
-0.00159229
-0.00158579
-0.00157927
-0.00157274
-0.0015662
-0.00155963
-0.00155307
-0.00154649
-0.00153989
-0.00153328
-0.00152666
-0.00152003
-0.00151338
-0.00150673
-0.00150006
-0.00149338
-0.00148669
-0.00147999
-0.00147327
-0.00146656
-0.00145983
-0.00145308
-0.00144634
-0.00143957
-0.00143281
-0.00142602
-0.00141924
-0.00141244
-0.00140564
-0.00139883
-0.00139201
-0.00138517
-0.00137835
-0.0013715
-0.00136465
-0.0013578
-0.00135093
-0.00134406
-0.00133719
-0.00133031
-0.00132342
-0.00131652
-0.00130963
-0.00130273
-0.00129582
-0.0012889
-0.00128199
-0.00127507
-0.00126814
-0.00126121
-0.00125429
-0.00124734
-0.00124041
-0.00123346
-0.00122652
-0.00121957
-0.00121263
-0.00120567
-0.00119871
-0.00119177
-0.0011848
-0.00117785
-0.00117089
-0.00116392
-0.00115697
-0.00115001
-0.00114304
-0.00113608
-0.00112913
-0.00112216
-0.0011152
-0.00110824
-0.00110128
-0.00109433
0.00108737
0.00108042
0.00107346
0.00106651
0.00105956
0.00105262
0.00104568
0.00103873
0.0010318
0.00102486
0.00101793
0.001011
0.00100408
0.00099716
0.00099024
0.00098333
0.00097643
0.00096952
0.00096263
0.00095573
0.00094885
0.00094197
0.00093509
0.00092822
0.00092135
0.0009145
0.00090765
0.00090081
0.00089396
0.00088714
0.00088031
0.0008735
0.00086669
0.00085988
0.0008531
0.00084631
0.00083953
0.00083277
0.000826
0.00081926
0.00081251
0.00080578
0.00079906
0.00079234
0.00078564
0.00077894
0.00077226
0.00076559
0.00075892
0.00075227
0.00074563
0.00073899
0.00073237
0.00072577
0.00071916
0.00071258
0.00070601
0.00069944
0.00069289
0.00068635
0.00067982
0.00067331
0.00066681
0.00066032
0.00065384
0.00064738
0.00064093
0.0006345
0.00062807
0.00062167
0.00061527
0.00060888
0.00060253
0.00059617
0.00058983
0.00058351
0.0005772
0.00057091
0.00056462
0.00055837
0.00055212
0.00054588
0.00053967
0.00053347
0.00052728
0.00052111
0.00051496
0.00050883
0.0005027
0.0004966
0.00049052
0.00048444
0.00047839
0.00047236
0.00046633
0.00046034
0.00045435
0.00044839
0.00044243
0.00043651
0.0004306
0.0004247
0.00041882
0.00041297
0.00040713
0.0004013
0.00039551
0.00038972
0.00038396
0.00037821
0.00037249
0.00036678
0.00036109
0.00035543
0.00034978
0.00034415
0.00033854
0.00033296
0.00032738
0.00032184
0.00031631
0.0003108
0.00030531
0.00029985
0.0002944
0.00028898
0.00028358
0.00027818
0.00027283
0.00026749
0.00026217
0.00025686
0.0002516
0.00024633
0.0002411
0.00023589
0.0002307
0.00022553
0.00022039
0.00021526
0.00021015
0.00020508
0.00020002
0.00019498
0.00018997
0.00018498
0.00018001
0.00017507
0.00017014
0.00016524
0.00016037
0.00015551
0.00015068
0.00014587
0.00014109
0.00013633
0.00013159
0.00012687
0.00012218
0.00011751
0.00011287
0.00010825
0.00010365
9.908e-05
9.453e-05
9e-05
8.55e-05
8.103e-05
7.657e-05
7.213e-05
6.774e-05
6.335e-05
5.899e-05
5.466e-05
5.035e-05
4.607e-05
4.181e-05
3.757e-05
3.336e-05
2.917e-05
2.501e-05
2.088e-05
1.676e-05
1.267e-05
8.61e-06
4.57e-06
5.5e-07
-3.43e-06
-7.4e-06
-1.134e-05
-1.525e-05
-1.914e-05
-2.301e-05
-2.685e-05
-3.066e-05
-3.445e-05
-3.822e-05
-4.195e-05
-4.568e-05
-4.936e-05
-5.302e-05
-5.666e-05
-6.028e-05
-6.387e-05
-6.742e-05
-7.097e-05
-7.448e-05
-7.797e-05
-8.143e-05
-8.487e-05
-8.828e-05
-9.167e-05
-9.503e-05
-9.836e-05
-0.00010168
-0.00010496
-0.00010822
-0.00011145
-0.00011467
-0.00011785
-0.00012101
-0.00012414
-0.00012725
-0.00013033
-0.00013339
-0.00013642
-0.00013943
-0.00014241
-0.00014537
-0.0001483
-0.0001512
-0.00015409
-0.00015694
-0.00015977
-0.00016257
-0.00016536
-0.00016811
-0.00017083
-0.00017355
-0.00017622
-0.00017887
-0.00018151
-0.00018411
-0.00018668
-0.00018924
-0.00019177
-0.00019428
-0.00019675
-0.0001992
-0.00020164
-0.00020404
-0.00020641
-0.00020878
-0.0002111
-0.00021341
-0.00021568
-0.00021794
-0.00022018
-0.00022238
-0.00022456
-0.00022672
-0.00022885
-0.00023096
-0.00023304
-0.0002351
-0.00023714
-0.00023915
-0.00024113
-0.0002431
-0.00024503
-0.00024695
-0.00024884
-0.0002507
-0.00025255
-0.00025436
-0.00025616
-0.00025793
-0.00025968
-0.0002614
-0.00026309
-0.00026478
-0.00026642
-0.00026805
-0.00026966
-0.00027124
-0.0002728
-0.00027433
-0.00027585
-0.00027733
-0.0002788
-0.00028024
-0.00028166
-0.00028306
-0.00028443
-0.00028578
-0.00028711
-0.00028841
-0.0002897
-0.00029096
-0.0002922
-0.00029341
-0.0002946
-0.00029578
-0.00029692
-0.00029805
-0.00029916
-0.00030024
-0.0003013
-0.00030233
-0.00030336
-0.00030435
-0.00030532
-0.00030628
-0.00030721
-0.00030811
-0.00030901
-0.00030987
-0.00031072
-0.00031154
-0.00031234
-0.00031313
-0.00031389
-0.00031464
-0.00031535
-0.00031605
-0.00031673
-0.0003174
-0.00031803
-0.00031864
-0.00031925
-0.00031983
-0.00032038
-0.00032092
-0.00032145
-0.00032194
-0.00032241
-0.00032288
-0.00032332
-0.00032374
-0.00032415
-0.00032452
-0.00032489
-0.00032523
-0.00032556
-0.00032587
-0.00032615
-0.00032642
-0.00032667
-0.00032691
-0.00032712
-0.00032731
-0.0003275
-0.00032765
-0.00032779
-0.00032792
-0.00032803
-0.00032811
-0.00032818
-0.00032824
-0.00032827
-0.00032829
-0.0003283
-0.00032827
-0.00032825
-0.00032819
-0.00032813
-0.00032805
-0.00032795
-0.00032783
-0.0003277
-0.00032755
-0.00032738
-0.00032721
-0.00032701
-0.00032679
-0.00032657
-0.00032632
-0.00032607
-0.00032579
-0.0003255
-0.00032519
-0.00032487
-0.00032454
-0.00032419
-0.00032382
-0.00032344
-0.00032305
-0.00032264
-0.00032222
-0.00032177
-0.00032133
-0.00032086
-0.00032038
-0.00031989
-0.00031938
-0.00031886
-0.00031832
-0.00031778
-0.00031721
-0.00031664
-0.00031606
-0.00031545
-0.00031484
-0.00031422
-0.00031357
-0.00031293
-0.00031226
-0.00031158
-0.0003109
-0.0003102
-0.00030948
-0.00030877
-0.00030802
-0.00030728
-0.00030652
-0.00030575
-0.00030497
-0.00030417
-0.00030338
-0.00030255
-0.00030174
-0.00030089
-0.00030005
-0.00029919
-0.00029832
-0.00029745
-0.00029655
-0.00029566
-0.00029475
-0.00029383
-0.0002929
-0.00029196
-0.00029102
-0.00029006
-0.00028909
-0.00028812
-0.00028713
-0.00028614
-0.00028514
-0.00028413
-0.00028311
-0.00028208
-0.00028104
-0.00028
-0.00027894
-0.00027788
-0.00027682
-0.00027574
-0.00027465
-0.00027356
-0.00027246
-0.00027135
-0.00027023
-0.00026912
-0.00026798
-0.00026685
-0.00026571
-0.00026456
-0.00026339
-0.00026224
-0.00026107
-0.00025989
-0.00025871
-0.00025752
-0.00025632
-0.00025513
-0.00025391
-0.00025271
-0.00025149
-0.00025027
-0.00024903
-0.00024781
-0.00024656
-0.00024532
-0.00024408
-0.00024281
-0.00024156
-0.0002403
-0.00023903
-0.00023775
-0.00023648
-0.0002352
-0.00023392
-0.00023262
-0.00023133
-0.00023004
-0.00022873
-0.00022743
-0.00022612
-0.00022481
-0.0002235
-0.00022218
